
 PRINT ELEMENT TABLE ITEMS PER ELEMENT
 
  ***** POST1 ELEMENT TABLE LISTING *****                                      
 
                 STAT                        CURRENT                         CURRENT                         CURRENT 
                 ELEM                        MX                              MY                              MXY     
                    1                      0.22205E+00                     0.11362E+01                    -0.48825E-01
                    2                      0.38781E+00                     0.19713E+01                    -0.42366E-01
                    3                      0.55398E+00                     0.28433E+01                    -0.41691E-01
                    4                      0.67328E+00                     0.35169E+01                    -0.68062E-01
                    5                      0.84115E+00                     0.40761E+01                    -0.31950E-01
                    6                      0.93613E+00                     0.46649E+01                    -0.30217E-01
                    7                      0.10755E+01                     0.53688E+01                    -0.29741E-01
                    8                      0.12373E+01                     0.60615E+01                     0.18075E-01
                    9                      0.13083E+01                     0.66491E+01                    -0.42611E-03
                   10                      0.14766E+01                     0.74326E+01                     0.31410E-01
                   11                      0.16157E+01                     0.81158E+01                     0.54201E-01
                   12                      0.17120E+01                     0.86456E+01                     0.44332E-01
                   13                      0.18030E+01                     0.90942E+01                     0.48541E-01
                   14                      0.18456E+01                     0.93105E+01                     0.30342E-01
                   15                      0.18380E+01                     0.92578E+01                     0.32570E-01
                   16                      0.17476E+01                     0.88231E+01                     0.18691E-01
                   17                      0.15989E+01                     0.80856E+01                     0.21875E-01
                   18                      0.14086E+01                     0.70856E+01                    -0.59805E-02
                   19                      0.11727E+01                     0.59272E+01                    -0.11660E-02
                   20                      0.90205E+00                     0.45104E+01                     0.63521E-02
                   21                      0.61099E+00                     0.31292E+01                     0.11014E-01
                   22                      0.38483E+00                     0.18300E+01                     0.14428E-02
                   23                      0.21269E+00                     0.78732E+00                    -0.11944E-01
                   24                     -0.47098E-01                     0.18813E+00                     0.21293E-02
                   25                     -0.32454E+00                     0.17143E+00                    -0.17562E-01
                   26                      0.18262E+00                     0.60703E+00                    -0.36374E-01
                   27                      0.23013E+00                     0.11544E+01                    -0.50333E-01
                   28                      0.38210E+00                     0.19496E+01                    -0.55348E-01
                   29                      0.58263E+00                     0.28429E+01                    -0.50289E-01
                   30                      0.73953E+00                     0.36919E+01                    -0.45664E-01
                   31                      0.91727E+00                     0.45336E+01                    -0.31183E-01
                   32                      0.10652E+01                     0.53911E+01                    -0.56353E-02
                   33                      0.12712E+01                     0.62737E+01                     0.10170E-01
                   34                      0.14091E+01                     0.71419E+01                     0.20315E-01
                   35                      0.15825E+01                     0.79735E+01                     0.40624E-01
                   36                      0.17103E+01                     0.86339E+01                     0.55722E-01
                   37                      0.18015E+01                     0.90996E+01                     0.55230E-01
                   38                      0.18505E+01                     0.93478E+01                     0.57887E-01
                   39                      0.19087E+01                     0.95185E+01                    -0.90755E-02
                   40                      0.17792E+01                     0.89894E+01                     0.73259E-01
                   41                      0.15887E+01                     0.80897E+01                    -0.24541E-01
 
  ***** POST1 ELEMENT TABLE LISTING *****                                      
 
                 STAT                        CURRENT                         CURRENT                         CURRENT 
                 ELEM                        MX                              MY                              MXY     
                   42                      0.14664E+01                     0.73882E+01                    -0.11919E-01
                   43                      0.12404E+01                     0.62957E+01                    -0.13766E-02
                   44                      0.97981E+00                     0.49270E+01                     0.43561E-02
                   45                      0.68402E+00                     0.34390E+01                     0.21134E-02
                   46                      0.40831E+00                     0.19783E+01                    -0.83199E-02
                   47                      0.21890E+00                     0.82757E+00                    -0.77271E-02
                   48                     -0.27407E-01                     0.19027E+00                     0.27547E-02
                   49                     -0.16759E+00                     0.17494E+00                    -0.17051E-02
                   50                      0.17058E+00                     0.72277E+00                    -0.29632E-01
                   51                      0.31814E+00                     0.14727E+01                    -0.28269E-01
                   52                      0.44464E+00                     0.22646E+01                    -0.62100E-01
                   53                      0.63335E+00                     0.31520E+01                    -0.48959E-01
                   54                      0.81904E+00                     0.40744E+01                    -0.42013E-01
                   55                      0.10037E+01                     0.50108E+01                    -0.21663E-01
                   56                      0.12206E+01                     0.59792E+01                     0.26944E-02
                   57                      0.13560E+01                     0.69232E+01                     0.12066E-01
                   58                      0.14838E+01                     0.75602E+01                     0.48873E-02
                   59                      0.16319E+01                     0.81172E+01                     0.52500E-01
                   60                      0.17067E+01                     0.86385E+01                     0.38493E-01
                   61                      0.17913E+01                     0.90366E+01                     0.43491E-01
                   62                      0.18308E+01                     0.92293E+01                     0.31230E-01
                   63                      0.18152E+01                     0.91714E+01                     0.24894E-01
                   64                      0.17420E+01                     0.87996E+01                     0.13027E-01
                   65                      0.16108E+01                     0.81352E+01                     0.13262E-01
                   66                      0.14155E+01                     0.71481E+01                     0.95075E-02
                   67                      0.11803E+01                     0.59367E+01                     0.77368E-02
                   68                      0.90011E+00                     0.45479E+01                     0.15996E-02
                   69                      0.63002E+00                     0.31758E+01                    -0.11217E-01
                   70                      0.41248E+00                     0.19700E+01                    -0.51697E-02
                   71                      0.23255E+00                     0.91607E+00                     0.10049E-01
                   72                     -0.48181E-01                     0.23767E+00                     0.54436E-02
                   73                     -0.28385E+00                     0.10638E+00                    -0.19835E-02
                   74                      0.18925E+00                     0.67813E+00                    -0.26075E-01
                   75                      0.25445E+00                     0.13161E+01                    -0.42027E-01
                   76                      0.41269E+00                     0.21667E+01                    -0.54381E-01
                   77                      0.61302E+00                     0.29517E+01                    -0.56124E-01
                   78                      0.77633E+00                     0.36683E+01                    -0.18242E-01
                   79                      0.86419E+00                     0.44629E+01                    -0.29628E-01
                   80                      0.10887E+01                     0.53953E+01                    -0.11348E-01
                   81                      0.12508E+01                     0.62950E+01                     0.11870E-01
                   82                      0.14488E+01                     0.72603E+01                     0.10633E-01
 
  ***** POST1 ELEMENT TABLE LISTING *****                                      
 
                 STAT                        CURRENT                         CURRENT                         CURRENT 
                 ELEM                        MX                              MY                              MXY     
                   83                      0.15975E+01                     0.79965E+01                     0.58481E-01
                   84                      0.16746E+01                     0.85261E+01                     0.35341E-01
                   85                      0.18011E+01                     0.90643E+01                     0.46330E-01
                   86                      0.18570E+01                     0.93627E+01                     0.39892E-01
                   87                      0.18533E+01                     0.93606E+01                     0.30113E-01
                   88                      0.17975E+01                     0.90357E+01                     0.22796E-01
                   89                      0.16512E+01                     0.83581E+01                     0.13861E-01
                   90                      0.14620E+01                     0.73969E+01                     0.40006E-02
                   91                      0.12268E+01                     0.62137E+01                     0.37392E-03
                   92                      0.96242E+00                     0.48480E+01                    -0.34761E-02
                   93                      0.67848E+00                     0.33962E+01                    -0.46492E-02
                   94                      0.43083E+00                     0.20340E+01                    -0.19220E-01
                   95                      0.22008E+00                     0.87639E+00                    -0.45287E-02
                   96                     -0.59699E-01                     0.15865E+00                    -0.18956E-01
                   97                     -0.13295E+00                     0.23022E+00                    -0.13258E-01
                   98                      0.18042E+00                     0.76976E+00                    -0.37229E-01
                   99                      0.31040E+00                     0.15357E+01                    -0.41251E-01
                  100                      0.47711E+00                     0.23481E+01                    -0.52357E-01
                  101                      0.63357E+00                     0.31849E+01                    -0.54496E-01
                  102                      0.81700E+00                     0.40648E+01                    -0.38489E-01
                  103                      0.99265E+00                     0.49541E+01                    -0.20522E-01
                  104                      0.11721E+01                     0.58656E+01                    -0.14842E-02
                  105                      0.13493E+01                     0.67664E+01                     0.19900E-01
                  106                      0.15030E+01                     0.75754E+01                     0.41405E-01
                  107                      0.16407E+01                     0.82714E+01                     0.49224E-01
                  108                      0.17499E+01                     0.88168E+01                     0.55593E-01
                  109                      0.18086E+01                     0.92096E+01                     0.51916E-01
                  110                      0.19494E+01                     0.96561E+01                    -0.11603E-01
                  111                      0.18432E+01                     0.93706E+01                     0.75473E-01
                  112                      0.17150E+01                     0.85548E+01                    -0.45762E-02
                  113                      0.15645E+01                     0.80046E+01                    -0.16275E-01
                  114                      0.14175E+01                     0.71639E+01                    -0.37396E-02
                  115                      0.11728E+01                     0.59454E+01                     0.20288E-02
                  116                      0.90436E+00                     0.45348E+01                     0.92569E-02
                  117                      0.63127E+00                     0.31635E+01                    -0.11053E-02
                  118                      0.40223E+00                     0.19407E+01                     0.29224E-02
                  119                      0.22506E+00                     0.87732E+00                    -0.43980E-03
                  120                     -0.50701E-01                     0.20375E+00                     0.20077E-02
                  121                      0.79860E-01                     0.31747E+00                    -0.37207E-01
                  122                      0.14307E+00                     0.68009E+00                    -0.23327E-01
                  123                      0.29936E+00                     0.14276E+01                    -0.24967E-01
 
  ***** POST1 ELEMENT TABLE LISTING *****                                      
 
                 STAT                        CURRENT                         CURRENT                         CURRENT 
                 ELEM                        MX                              MY                              MXY     
                  124                      0.42314E+00                     0.21329E+01                    -0.59785E-01
                  125                      0.60523E+00                     0.30162E+01                    -0.47513E-01
                  126                      0.78309E+00                     0.39047E+01                    -0.43020E-01
                  127                      0.96555E+00                     0.47900E+01                    -0.19920E-01
                  128                      0.11275E+01                     0.56578E+01                    -0.14149E-02
                  129                      0.13172E+01                     0.65906E+01                     0.75271E-02
                  130                      0.15018E+01                     0.75162E+01                     0.22419E-01
                  131                      0.16379E+01                     0.81929E+01                     0.42220E-01
                  132                      0.16976E+01                     0.85596E+01                     0.55540E-01
                  133                      0.17389E+01                     0.88702E+01                     0.19167E-01
                  134                      0.18337E+01                     0.92413E+01                     0.31572E-01
                  135                      0.18254E+01                     0.91940E+01                     0.34627E-01
                  136                      0.17279E+01                     0.87492E+01                     0.22806E-01
                  137                      0.15952E+01                     0.80580E+01                     0.93718E-02
                  138                      0.14118E+01                     0.71300E+01                     0.37169E-02
                  139                      0.11828E+01                     0.59684E+01                    -0.82591E-02
                  140                      0.92583E+00                     0.46282E+01                     0.36873E-02
                  141                      0.62241E+00                     0.31188E+01                     0.19871E-02
                  142                      0.35762E+00                     0.17677E+01                    -0.64887E-02
                  143                      0.22137E+00                     0.79736E+00                     0.89136E-03
                  144                     -0.51726E-01                     0.19642E+00                     0.58575E-02
                  145                     -0.16815E+00                     0.17046E+00                    -0.13864E-01
                  146                      0.18362E+00                     0.71948E+00                    -0.33684E-01
                  147                      0.28935E+00                     0.15000E+01                    -0.51433E-01
                  148                      0.48256E+00                     0.23455E+01                    -0.45008E-01
                  149                      0.62605E+00                     0.31434E+01                    -0.54924E-01
                  150                      0.80463E+00                     0.40104E+01                    -0.39885E-01
                  151                      0.98197E+00                     0.48986E+01                    -0.21601E-01
                  152                      0.11617E+01                     0.58061E+01                    -0.22534E-02
                  153                      0.13359E+01                     0.67054E+01                     0.16061E-01
                  154                      0.14975E+01                     0.75333E+01                     0.34545E-01
                  155                      0.16332E+01                     0.82283E+01                     0.46882E-01
